Wavelength (nm)	ITOsorizon_n	ITOsorizon_k
300	2.2813	0.00187
301	2.2772	0.018603
302	2.2726	0.018079
303	2.2677	0.012044
304	2.2625	0.015326
305	2.2579	0.008774
306	2.2539	0.0072714
307	2.2475	0.0096037
308	2.2415	0.0068349
309	2.2361	0.016937
310	2.2313	0.020463
311	2.2263	0.024543
312	2.2198	0.027014
313	2.2134	0.022376
314	2.2071	0.02211
315	2.2033	0.024245
316	2.1991	0.024293
317	2.1943	0.029667
318	2.189	0.028785
319	2.1836	0.026074
320	2.178	0.027697
321	2.1735	0.027027
322	2.1694	0.025978
323	2.1626	0.025679
324	2.1567	0.021698
325	2.1521	0.019034
326	2.1471	0.02045
327	2.1419	0.020627
328	2.1357	0.022622
329	2.1306	0.023577
330	2.1262	0.022893
331	2.1228	0.022661
332	2.1181	0.020708
333	2.1117	0.020224
334	2.1074	0.020013
335	2.1034	0.019556
336	2.0996	0.02072
337	2.0958	0.021017
338	2.0919	0.019538
339	2.0886	0.019201
340	2.0856	0.018182
341	2.0828	0.017667
342	2.08	0.018114
343	2.0766	0.017231
344	2.0718	0.016527
345	2.067	0.017471
346	2.0623	0.016735
347	2.0576	0.016918
348	2.0533	0.016522
349	2.0496	0.015512
350	2.0479	0.015817
351	2.0447	0.01492
352	2.0381	0.014959
353	2.0359	0.014533
354	2.0349	0.013847
355	2.0314	0.013409
356	2.028	0.012806
357	2.0246	0.012533
358	2.0224	0.012349
359	2.0195	0.012155
360	2.0154	0.011969
361	2.0119	0.012039
362	2.0091	0.011581
363	2.0086	0.011391
364	2.0052	0.010411
365	1.9994	0.0099474
366	1.9968	0.0097086
367	1.9946	0.0092788
368	1.9932	0.009074
369	1.9897	0.0082
370	1.9864	0.0078682
371	1.986	0.0077123
372	1.9843	0.0077311
373	1.9817	0.0077597
374	1.9806	0.0075086
375	1.9791	0.0070569
376	1.9768	0.0070063
377	1.9748	0.006755
378	1.973	0.0065038
379	1.9712	0.0065226
380	1.9691	0.00627
381	1.9669	0.0057477
382	1.9645	0.00575
383	1.9635	0.005218
384	1.9644	0.00523
385	1.9614	0.00481
386	1.9587	0.0047046
387	1.9599	0.00472
388	1.9591	0.00445
389	1.9572	0.0041482
390	1.9562	0.00391
391	1.9551	0.00364
392	1.954	0.0031476
393	1.9508	0.0031
394	1.9477	0.00295
395	1.9463	0.0026982
396	1.946	0.00284
397	1.9462	0.0027732
398	1.9439	0.00257
399	1.9431	0.00229
400	1.9438	0.00229
401	1.9428	0.00201
402	1.9418	0.00202
403	1.9412	0.00231
404	1.9415	0.00232
405	1.9419	0.00232
406	1.9392	0.0022276
407	1.9376	0.0023326
408	1.9369	0.00205
409	1.9356	0.00205
410	1.9347	0.0017688
411	1.9349	0.00177
412	1.9337	0.00148
413	1.9324	0.0012743
414	1.9334	0.00148
415	1.9332	0.00149
416	1.932	0.00179
417	1.9321	0.0016962
418	1.9323	0.0015
419	1.9324	0.0012
420	1.9317	0.0012006
421	1.9309	0.00121
422	1.9318	0.00121
423	1.9312	0.00152
424	1.9295	0.00152
425	1.9306	0.00122
426	1.931	0.00122
427	1.9299	0.0012249
428	1.9301	0.00123
429	1.93	0.00123
430	1.9258	0.0011517
431	1.9256	0.00092697
432	1.9285	0.00095649
433	1.9274	0.00093127
434	1.9255	0.00124
435	1.9228	0.00125
436	1.9251	0.00125
437	1.928	0.00125
438	1.9281	0.00126
439	1.9265	0.00126
440	1.9236	0.00126
441	1.9263	0.0014432
442	1.9283	0.0015838
443	1.929	0.0014865
444	1.9279	0.0015147
445	1.9269	0.0015918
446	1.9281	0.0016
447	1.9296	0.0016188
448	1.931	0.00193
449	1.929	0.00193
450	1.9292	0.0019385
451	1.9323	0.00194
452	1.9311	0.00194
453	1.9296	0.0020535
454	1.9295	0.00195
455	1.9311	0.00196
456	1.9334	0.00196
457	1.9312	0.0021206
458	1.9293	0.0023
459	1.9278	0.0024165
460	1.928	0.00264
461	1.9286	0.0026426
462	1.9296	0.00298
463	1.9307	0.00299
464	1.9317	0.0029912
465	1.9309	0.003
466	1.9292	0.00301
467	1.9266	0.00301
468	1.9274	0.0033591
469	1.9286	0.00366
470	1.9295	0.0037082
471	1.9299	0.0033779
472	1.9298	0.00338
473	1.9275	0.00339
474	1.9257	0.0034
475	1.9246	0.0034064
476	1.9263	0.00375
477	1.9262	0.00376
478	1.9214	0.00377
479	1.9198	0.00412
480	1.9188	0.00413
481	1.9146	0.00428
482	1.9122	0.00449
483	1.9115	0.0045
484	1.9122	0.00451
485	1.9117	0.0046229
486	1.909	0.00453
487	1.9058	0.00489
488	1.9026	0.00455
489	1.8999	0.0046236
490	1.8991	0.00492
491	1.8996	0.00493
492	1.8989	0.00494
493	1.8971	0.00495
494	1.8935	0.0053109
495	1.8912	0.0053206
496	1.8894	0.0053303
497	1.8875	0.0057
498	1.8866	0.00571
499	1.8862	0.00572
500	1.8839	0.0057397
501	1.8833	0.0057497
502	1.8853	0.0060982
503	1.8833	0.00613
504	1.8807	0.00614
505	1.879	0.0061591
506	1.8778	0.0061691
507	1.8768	0.0065073
508	1.8726	0.0065591
509	1.871	0.0065691
510	1.873	0.00658
511	1.8694	0.00659
512	1.8655	0.0066088
513	1.8641	0.00662
514	1.8642	0.0069552
515	1.865	0.0070188
516	1.8641	0.0070288
517	1.8634	0.00704
518	1.8629	0.0070588
519	1.8602	0.00744
520	1.8577	0.0074591
521	1.8564	0.00747
522	1.8557	0.0074891
523	1.8553	0.00787
524	1.855	0.0078894
525	1.8533	0.0079
526	1.8502	0.00754
527	1.8492	0.0075597
528	1.8481	0.00795
529	1.8466	0.00796
530	1.8459	0.00836
531	1.8456	0.0083703
532	1.8446	0.0083906
533	1.8432	0.00841
534	1.8415	0.0084209
535	1.8412	0.00844
536	1.8407	0.0085091
537	1.8394	0.0088518
538	1.8387	0.0088718
539	1.8379	0.00889
540	1.8349	0.0089024
541	1.8335	0.00892
542	1.8332	0.00894
543	1.8304	0.0089533
544	1.8286	0.00897
545	1.8285	0.0089839
546	1.8271	0.0093942
547	1.8258	0.00941
548	1.8257	0.0092291
549	1.8248	0.00905
550	1.8234	0.0094658
551	1.8206	0.00948
552	1.8189	0.0094967
553	1.8187	0.009517
554	1.8171	0.00953
555	1.8158	0.0095479
556	1.8165	0.0095685
557	1.8155	0.0096285
558	1.8136	0.0096
559	1.8114	0.01002
560	1.8108	0.01004
561	1.812	0.010051
562	1.8102	0.010072
563	1.8083	0.010417
564	1.8078	0.010209
565	1.8067	0.010123
566	1.8055	0.010144
567	1.8041	0.010164
568	1.8019	0.010585
569	1.7989	0.010605
570	1.7989	0.010378
571	1.799	0.010237
572	1.7984	0.01025
573	1.7969	0.010593
574	1.7952	0.010698
575	1.7943	0.010719
576	1.7942	0.01074
577	1.7947	0.010751
578	1.7931	0.010771
579	1.792	0.010792
580	1.792	0.010813
581	1.7906	0.01083
582	1.7887	0.01085
583	1.7871	0.010865
584	1.7866	0.010886
585	1.787	0.010907
586	1.7866	0.01092
587	1.7855	0.01094
588	1.7832	0.010959
589	1.7819	0.01098
590	1.7809	0.011421
591	1.7802	0.011012
592	1.7791	0.011033
593	1.7777	0.011053
594	1.7766	0.011074
595	1.776	0.01109
596	1.7762	0.011536
597	1.7747	0.011557
598	1.7732	0.011578
599	1.7727	0.011599
600	1.7704	0.01161
601	1.7673	0.011631
602	1.7674	0.011652
603	1.7671	0.011673
604	1.7664	0.01169
605	1.7643	0.01171
606	1.7625	0.01173
607	1.7618	0.011317
608	1.7607	0.011768
609	1.7592	0.01135
610	1.7572	0.011371
611	1.7561	0.01139
612	1.756	0.01141
613	1.7545	0.011424
614	1.7539	0.011679
615	1.7552	0.011467
616	1.7532	0.011832
617	1.7507	0.01194
618	1.7532	0.01196
619	1.753	0.011982
620	1.7506	0.012003
621	1.7481	0.01202
622	1.7458	0.01204
623	1.7439	0.01206
624	1.7439	0.012078
625	1.7441	0.012099
626	1.7423	0.01212
627	1.7403	0.01214
628	1.738	0.012153
629	1.7373	0.011725
630	1.7367	0.011746
631	1.7364	0.01176
632	1.736	0.01178
633	1.7355	0.012236
634	1.7352	0.0122
635	1.7342	0.012293
636	1.733	0.01231
637	1.7314	0.011876
638	1.7293	0.01189
639	1.7267	0.01191
640	1.7245	0.011931
641	1.7232	0.01195
642	1.7241	0.011964
643	1.7234	0.011985
644	1.722	0.012007
645	1.72	0.01202
646	1.7195	0.01204
647	1.7203	0.01206
648	1.7172	0.012543
649	1.715	0.012095
650	1.7151	0.011808
651	1.7149	0.011668
652	1.7142	0.01169
653	1.712	0.011702
654	1.711	0.012032
655	1.7109	0.011967
656	1.7102	0.011757
657	1.7094	0.012188
658	1.7084	0.012231
659	1.7052	0.012282
660	1.7025	0.012304
661	1.7031	0.01232
662	1.7033	0.011868
663	1.7034	0.01188
664	1.7013	0.011902
665	1.7001	0.01192
666	1.6998	0.012199
667	1.6984	0.011957
668	1.6972	0.01197
669	1.6969	0.012411
670	1.6958	0.01249
671	1.6946	0.012505
672	1.6946	0.012186
673	1.6936	0.01206
674	1.6914	0.012498
675	1.6906	0.0121
676	1.6892	0.012115
677	1.6868	0.011647
678	1.6862	0.011669
679	1.686	0.011682
680	1.6856	0.01219
681	1.684	0.012206
682	1.6815	0.01222
683	1.6806	0.01175
684	1.6802	0.01177
685	1.6808	0.011785
686	1.6794	0.0118
687	1.6773	0.01182
688	1.6742	0.012331
689	1.6727	0.011854
690	1.672	0.011376
691	1.6715	0.01139
692	1.6707	0.011411
693	1.6697	0.011923
694	1.6687	0.01194
695	1.6673	0.012458
696	1.6646	0.01247
697	1.6632	0.011992
698	1.6624	0.01201
699	1.662	0.011527
700	1.6615	0.01154
701	1.6611	0.01156
702	1.6606	0.011575
703	1.6602	0.01159
704	1.66	0.011116
705	1.6579	0.011235
706	1.6559	0.01164
707	1.6567	0.011657
708	1.6551	0.01167
709	1.6521	0.01169
710	1.6512	0.0112
711	1.6506	0.011218
712	1.6501	0.01174
713	1.6492	0.01176
714	1.6481	0.01126
715	1.6466	0.011279
716	1.6462	0.01078
717	1.6461	0.01131
718	1.6442	0.01081
719	1.6427	0.01082
720	1.6414	0.01084
721	1.6409	0.011118
722	1.6396	0.011388
723	1.6366	0.011401
724	1.6346	0.01142
725	1.6328	0.01109
726	1.631	0.01093
727	1.6311	0.01147
728	1.6328	0.012005
729	1.6325	0.01202
730	1.6317	0.011511
731	1.6302	0.01153
732	1.6286	0.01102
733	1.6273	0.01104
734	1.6266	0.010697
735	1.6247	0.011066
736	1.6224	0.01108
737	1.6216	0.011093
738	1.6204	0.01111
739	1.6188	0.010599
740	1.6164	0.01114
741	1.6149	0.011155
742	1.6156	0.01117
743	1.6156	0.01119
744	1.6152	0.0112
745	1.6147	0.011218
746	1.6134	0.011231
747	1.6115	0.010962
748	1.6106	0.010836
749	1.6093	0.01128
750	1.6074	0.01129
751	1.6062	0.011308
752	1.6055	0.010782
753	1.606	0.010795
754	1.6047	0.01081
755	1.6026	0.010822
756	1.6022	0.01084
757	1.602	0.01085
758	1.6019	0.01087
759	1.598	0.01088
760	1.5945	0.010899
761	1.5927	0.01091
762	1.5921	0.010927
763	1.5915	0.01094
764	1.5894	0.010752
765	1.5885	0.01042
766	1.5885	0.010376
767	1.5868	0.0099
768	1.5857	0.00991
769	1.5853	0.010472
770	1.5848	0.01049
771	1.5842	0.01105
772	1.5839	0.01107
773	1.5819	0.01108
774	1.5791	0.010541
775	1.5778	0.01
776	1.5762	0.01001
777	1.5744	0.01003
778	1.5733	0.01004
779	1.5731	0.010051
780	1.5747	0.010065
781	1.5756	0.01008
782	1.5755	0.01009
783	1.5717	0.010667
784	1.5682	0.010718
785	1.565	0.011255
786	1.5665	0.01127
787	1.5655	0.01072
788	1.5616	0.01017
789	1.5598	0.00962
790	1.5591	0.00963
791	1.5601	0.00964
792	1.5594	0.00965
793	1.5579	0.010112
794	1.5554	0.010679
795	1.5548	0.01026
796	1.5556	0.0097
797	1.5556	0.00857
798	1.5545	0.0091303
799	1.5518	0.00881
800	1.5489	0.00965