Wavelength (nm)	PCBM_n	PCBM_k
300	2.12362	0.53945
301	2.12033	0.53194
302	2.11767	0.52431
303	2.11562	0.51676
304	2.11318	0.5097
305	2.10953	0.50358
306	2.10714	0.49719
307	2.10461	0.49097
308	2.10176	0.485
309	2.09711	0.48027
310	2.09318	0.4754
311	2.08971	0.47043
312	2.08393	0.46601
313	2.07938	0.46132
314	2.0758	0.45676
315	2.07253	0.45766
316	2.07029	0.45845
317	2.06896	0.45913
318	2.0659	0.46019
319	2.06288	0.46125
320	2.05994	0.46228
321	2.05595	0.46356
322	2.05258	0.4647
323	2.05126	0.46537
324	2.05033	0.46787
325	2.04965	0.47134
326	2.04989	0.47659
327	2.05072	0.48168
328	2.05235	0.48654
329	2.05517	0.49107
330	2.05862	0.49553
331	2.06456	0.50027
332	2.07135	0.50492
333	2.07931	0.50945
334	2.08903	0.51345
335	2.09944	0.51725
336	2.11005	0.51733
337	2.12102	0.517
338	2.13301	0.5155
339	2.14485	0.51405
340	2.15654	0.51264
341	2.16762	0.50819
342	2.17848	0.50265
343	2.18876	0.49604
344	2.19879	0.48917
345	2.20737	0.48095
346	2.21576	0.47244
347	2.22372	0.46328
348	2.23041	0.4544
349	2.23556	0.44587
350	2.24018	0.43633
351	2.24442	0.42608
352	2.24749	0.41605
353	2.25002	0.40612
354	2.25198	0.39619
355	2.25378	0.38626
356	2.25441	0.37672
357	2.25483	0.36724
358	2.25427	0.3583
359	2.25359	0.34942
360	2.25204	0.34194
361	2.25042	0.33458
362	2.24858	0.32843
363	2.24673	0.32238
364	2.24467	0.31639
365	2.2426	0.31042
366	2.24048	0.30491
367	2.23835	0.29948
368	2.23656	0.29405
369	2.23485	0.28863
370	2.23296	0.28326
371	2.231	0.27792
372	2.22906	0.27309
373	2.22713	0.26861
374	2.22489	0.2642
375	2.22226	0.25987
376	2.21959	0.25555
377	2.21684	0.25126
378	2.21405	0.24708
379	2.2109	0.24372
380	2.20776	0.24036
381	2.20557	0.23754
382	2.20348	0.23477
383	2.20142	0.23202
384	2.19936	0.22927
385	2.1968	0.22658
386	2.19347	0.22399
387	2.19023	0.22141
388	2.18771	0.21898
389	2.18519	0.21656
390	2.18283	0.21458
391	2.1805	0.21273
392	2.17847	0.21085
393	2.1768	0.20895
394	2.17509	0.20705
395	2.17282	0.20523
396	2.17054	0.2034
397	2.16847	0.20157
398	2.16651	0.19973
399	2.16454	0.19789
400	2.16258	0.19607
401	2.16062	0.19424
402	2.15797	0.19249
403	2.15509	0.19077
404	2.15239	0.18927
405	2.15018	0.18838
406	2.14796	0.18749
407	2.14564	0.1867
408	2.14328	0.18595
409	2.14097	0.18519
410	2.13887	0.18442
411	2.13678	0.18364
412	2.13528	0.18283
413	2.13419	0.18198
414	2.1331	0.18113
415	2.13188	0.1803
416	2.13065	0.17947
417	2.12942	0.17865
418	2.12821	0.17783
419	2.12699	0.17701
420	2.1258	0.17634
421	2.12462	0.17577
422	2.12344	0.17519
423	2.12227	0.17464
424	2.12111	0.17408
425	2.11994	0.17354
426	2.11879	0.17299
427	2.11764	0.17245
428	2.1165	0.1719
429	2.11536	0.17136
430	2.11422	0.17082
431	2.11336	0.17027
432	2.11277	0.16969
433	2.11219	0.16911
434	2.11193	0.16843
435	2.11187	0.16767
436	2.11181	0.16692
437	2.11174	0.166
438	2.11166	0.16502
439	2.11159	0.16404
440	2.11151	0.16307
441	2.11144	0.1621
442	2.11136	0.16113
443	2.11129	0.16017
444	2.11122	0.15922
445	2.11115	0.15826
446	2.11042	0.15736
447	2.10948	0.15648
448	2.10854	0.1556
449	2.1081	0.1547
450	2.1079	0.15378
451	2.1077	0.15285
452	2.10757	0.15193
453	2.1075	0.15101
454	2.10744	0.1501
455	2.10722	0.14915
456	2.10678	0.14815
457	2.10634	0.14716
458	2.10594	0.14614
459	2.1057	0.14506
460	2.10546	0.14397
461	2.10522	0.14288
462	2.10474	0.14182
463	2.10425	0.14076
464	2.10376	0.1397
465	2.10324	0.13865
466	2.1027	0.13761
467	2.10217	0.13657
468	2.10164	0.13553
469	2.10111	0.1345
470	2.10058	0.13347
471	2.10006	0.13244
472	2.09995	0.1314
473	2.09988	0.13036
474	2.09982	0.12931
475	2.09958	0.12816
476	2.09913	0.12687
477	2.09868	0.12558
478	2.09823	0.12428
479	2.09764	0.12302
480	2.09705	0.12175
481	2.09646	0.12049
482	2.09609	0.11921
483	2.09602	0.11794
484	2.09595	0.11666
485	2.09588	0.11538
486	2.09551	0.11413
487	2.09507	0.11289
488	2.09463	0.11165
489	2.09418	0.11042
490	2.09363	0.1092
491	2.09309	0.10798
492	2.09255	0.10677
493	2.09203	0.10555
494	2.09156	0.10435
495	2.09108	0.10314
496	2.0906	0.10194
497	2.09016	0.10071
498	2.08974	0.09948
499	2.08931	0.09825
500	2.08889	0.09702
501	2.08839	0.09581
502	2.08789	0.0946
503	2.08739	0.09338
504	2.08689	0.09217
505	2.08643	0.09098
506	2.08598	0.08978
507	2.08553	0.08859
508	2.08508	0.08739
509	2.08464	0.08621
510	2.0842	0.08503
511	2.08376	0.08385
512	2.08329	0.08267
513	2.08226	0.08153
514	2.08123	0.08039
515	2.0802	0.07925
516	2.07918	0.07811
517	2.07834	0.07697
518	2.07751	0.07584
519	2.07667	0.07471
520	2.07584	0.07357
521	2.07493	0.07252
522	2.07401	0.07148
523	2.0731	0.07044
524	2.07218	0.06941
525	2.07111	0.06858
526	2.06995	0.06787
527	2.0688	0.06716
528	2.06765	0.06646
529	2.06656	0.06575
530	2.06556	0.06504
531	2.06457	0.06434
532	2.06358	0.06363
533	2.0626	0.06293
534	2.06173	0.06223
535	2.06086	0.06153
536	2.06	0.06083
537	2.05913	0.06013
538	2.05827	0.05944
539	2.05742	0.05875
540	2.05656	0.05806
541	2.05571	0.05737
542	2.05484	0.05668
543	2.05389	0.056
544	2.05294	0.05532
545	2.05198	0.05464
546	2.05103	0.05396
547	2.05022	0.0533
548	2.0495	0.05264
549	2.04879	0.05199
550	2.04807	0.05134
551	2.04736	0.05068
552	2.04643	0.05011
553	2.0455	0.04955
554	2.04456	0.04898
555	2.04363	0.04841
556	2.04275	0.04785
557	2.04208	0.04728
558	2.0414	0.04672
559	2.04073	0.04615
560	2.04005	0.04559
561	2.03933	0.04503
562	2.03854	0.04448
563	2.03776	0.04392
564	2.03697	0.04337
565	2.03619	0.04281
566	2.03541	0.04226
567	2.03464	0.04172
568	2.03386	0.04117
569	2.03309	0.04063
570	2.03232	0.04008
571	2.03155	0.03954
572	2.0308	0.039
573	2.03004	0.03846
574	2.02928	0.03792
575	2.02852	0.03738
576	2.02777	0.03694
577	2.02702	0.03657
578	2.02628	0.03621
579	2.02553	0.03585
580	2.02479	0.03549
581	2.0241	0.03516
582	2.0235	0.03488
583	2.02291	0.0346
584	2.02231	0.03432
585	2.02171	0.03404
586	2.02111	0.03376
587	2.0205	0.03349
588	2.01988	0.03321
589	2.01927	0.03293
590	2.01866	0.03266
591	2.01804	0.03238
592	2.01738	0.03211
593	2.01671	0.03184
594	2.01603	0.03157
595	2.01536	0.0313
596	2.01469	0.03103
597	2.01402	0.03076
598	2.01336	0.0305
599	2.0127	0.03023
600	2.01204	0.02996
601	2.01138	0.0297
602	2.01072	0.02943
603	2.01024	0.02916
604	2.00979	0.0289
605	2.00934	0.02863
606	2.00889	0.02837
607	2.00844	0.0281
608	2.00795	0.02784
609	2.00734	0.02758
610	2.00672	0.02732
611	2.0061	0.02706
612	2.00549	0.0268
613	2.00487	0.02655
614	2.0043	0.02626
615	2.00378	0.02596
616	2.00326	0.02565
617	2.00274	0.02534
618	2.00221	0.02503
619	2.00169	0.02473
620	2.00118	0.02442
621	2.00067	0.02411
622	2.00016	0.02379
623	1.99965	0.02348
624	1.99914	0.02317
625	1.99863	0.02286
626	1.99807	0.02255
627	1.99749	0.02225
628	1.9969	0.02194
629	1.99631	0.02164
630	1.99572	0.02133
631	1.99513	0.02103
632	1.99465	0.02072
633	1.99424	0.02042
634	1.99383	0.02012
635	1.99343	0.01982
636	1.99302	0.01951
637	1.99261	0.01921
638	1.99222	0.01891
639	1.99187	0.01861
640	1.99152	0.01832
641	1.99117	0.01802
642	1.99081	0.01772
643	1.99046	0.01742
644	1.9901	0.01713
645	1.9897	0.01686
646	1.9893	0.0166
647	1.9889	0.01633
648	1.9885	0.01607
649	1.9881	0.01581
650	1.9877	0.01554
651	1.98713	0.01532
652	1.98646	0.01512
653	1.98578	0.01492
654	1.9851	0.01473
655	1.98443	0.01453
656	1.98375	0.01433
657	1.98309	0.01414
658	1.98287	0.01394
659	1.98265	0.01374
660	1.98243	0.01355
661	1.98221	0.01335
662	1.98199	0.01315
663	1.98177	0.01296
664	1.98143	0.01276
665	1.98083	0.01257
666	1.98022	0.01238
667	1.97962	0.01219
668	1.97902	0.012
669	1.97841	0.01181
670	1.97781	0.01162
671	1.97719	0.01143
672	1.97655	0.01124
673	1.97591	0.01106
674	1.97527	0.01087
675	1.97463	0.01068
676	1.97399	0.01049
677	1.97335	0.01031
678	1.97272	0.01012
679	1.97209	0.00994
680	1.97147	0.00975
681	1.97084	0.00957
682	1.97021	0.00938
683	1.96958	0.0092
684	1.96896	0.00902
685	1.96843	0.00884
686	1.9681	0.0087
687	1.96778	0.00856
688	1.96746	0.00842
689	1.96713	0.00828
690	1.96681	0.00814
691	1.96649	0.008
692	1.96617	0.00786
693	1.96586	0.0078
694	1.96556	0.00774
695	1.96526	0.00768
696	1.96496	0.00762
697	1.96466	0.00756
698	1.96436	0.00751
699	1.96406	0.00745
700	1.96388	0.00739
701	1.9638	0.00733
702	1.96371	0.00727
703	1.96363	0.00721
704	1.96354	0.00715
705	1.96346	0.0071
706	1.96338	0.00704
707	1.96329	0.00698
708	1.96288	0.00692
709	1.96245	0.00687
710	1.96202	0.00681
711	1.96159	0.00675
712	1.96116	0.0067
713	1.96073	0.00664
714	1.9603	0.00659
715	1.95992	0.00653
716	1.95978	0.00647
717	1.95965	0.00642
718	1.95951	0.00636
719	1.95937	0.00631
720	1.95923	0.00625
721	1.9591	0.00619
722	1.95896	0.00614
723	1.95879	0.00608
724	1.95851	0.00603
725	1.95824	0.00597
726	1.95796	0.00592
727	1.95768	0.00587
728	1.95741	0.00581
729	1.95713	0.00576
730	1.95685	0.0057
731	1.95657	0.00565
732	1.95623	0.00556
733	1.95589	0.00547
734	1.95555	0.00538
735	1.95521	0.00529
736	1.95487	0.0052
737	1.95453	0.00511
738	1.95419	0.00503
739	1.95385	0.00494
740	1.95337	0.00481
741	1.95283	0.00466
742	1.9523	0.00451
743	1.95177	0.00436
744	1.95124	0.00422
745	1.95071	0.00407
746	1.95018	0.00392
747	1.94965	0.00378
748	1.94917	0.00363
749	1.94885	0.00349
750	1.94853	0.00334
751	1.9482	0.0032
752	1.94788	0.00305
753	1.94756	0.00291
754	1.94724	0.00276
755	1.94692	0.00262
756	1.9466	0.00247
757	1.94635	0.00233
758	1.94617	0.00219
759	1.94598	0.00205
760	1.9458	0.00191
761	1.94562	0.00176
762	1.94543	0.00162
763	1.94525	0.00148
764	1.94506	0.00134
765	1.94488	0.0012
766	1.94461	0.00107
767	1.9443	0.000940746
768	1.94398	0.000815538
769	1.94366	0.000690331
770	1.94334	0.000565124
771	1.94303	0.000439916
772	1.94271	0.000314709
773	1.94239	0.000189501
774	1.94207	6.42936E-05
775	1.9418	0
776	1.94157	0
777	1.94133	0
778	1.9411	0
779	1.94087	0
780	1.94064	0
781	1.94041	0
782	1.94017	0
783	1.93994	0
784	1.93971	0
785	1.93946	0
786	1.93921	0
787	1.93896	0
788	1.93872	0
789	1.93847	0
790	1.93822	0
791	1.93797	0
792	1.93772	0
793	1.93747	0
794	1.93723	0
795	1.937	0
796	1.93677	0
797	1.93654	0
798	1.93631	0
799	1.93607	0
800	1.93584	0